#Format: frequency (Hz)  ratio (dB)  phase (deg)
           1     -72.5167      22.9439
     1.00926     -73.0427      22.7148
     1.01861     -73.5602      22.5081
     1.02804     -74.0697      22.3217
     1.03757     -74.5716      22.1542
     1.04718     -75.0664      22.0039
     1.05688     -75.5545      21.8695
     1.06667     -76.0362      21.7499
     1.07654     -76.5118       21.644
     1.08652     -76.9816      21.5509
     1.09658      -77.446      21.4697
     1.10674     -77.9052      21.3996
     1.11699     -78.3595        21.34
     1.12733      -78.809      21.2902
     1.13777      -79.254      21.2497
     1.14831     -79.6946      21.2178
     1.15895     -80.1312      21.1942
     1.16968     -80.5638      21.1784
     1.18052     -80.9926      21.1701
     1.19145     -81.4178      21.1688
     1.20249     -81.8395      21.1742
     1.21362     -82.2578       21.186
     1.22486     -82.6729      21.2039
     1.23621      -83.085      21.2277
     1.24766      -83.494      21.2572
     1.25922     -83.9002      21.2921
     1.27088     -84.3035      21.3321
     1.28265     -84.7043      21.3772
     1.29453     -85.1024      21.4272
     1.30652      -85.498      21.4818
     1.31862     -85.8912       21.541
     1.33083     -86.2821      21.6045
     1.34316     -86.6707      21.6723
      1.3556     -87.0571      21.7443
     1.36816     -87.4413      21.8203
     1.38083     -87.8235      21.9003
     1.39362     -88.2038       21.984
     1.40653      -88.582      22.0716
     1.41955     -88.9584      22.1627
      1.4327     -89.3329      22.2575
     1.44597     -89.7057      22.3558
     1.45937     -90.0767      22.4576
     1.47288      -90.446      22.5627
     1.48652     -90.8136      22.6712
     1.50029     -91.1796      22.7829
     1.51419     -91.5441      22.8979
     1.52821      -91.907      23.0161
     1.54237     -92.2684      23.1374
     1.55665     -92.6284      23.2618
     1.57107     -92.9869      23.3893
     1.58562      -93.344      23.5198
     1.60031     -93.6997      23.6533
     1.61513     -94.0541      23.7898
     1.63009     -94.4072      23.9292
     1.64519     -94.7589      24.0716
     1.66043     -95.1094      24.2169
     1.67581     -95.4586       24.365
     1.69133     -95.8066       24.516
     1.70699     -96.1535      24.6699
     1.72281     -96.4991      24.8267
     1.73876     -96.8435      24.9862
     1.75487     -97.1868      25.1486
     1.77112     -97.5289      25.3138
     1.78753       -97.87      25.4818
     1.80408     -98.2099      25.6526
     1.82079     -98.5487      25.8262
     1.83766     -98.8865      26.0026
     1.85468     -99.2232      26.1817
     1.87186     -99.5588      26.3637
     1.88919     -99.8934      26.5484
     1.90669     -100.227       26.736
     1.92435     -100.559      26.9263
     1.94217     -100.891      27.1195
     1.96016     -101.221      27.3154
     1.97832     -101.551      27.5142
     1.99664     -101.879      27.7158
     2.01514     -102.207      27.9202
      2.0338     -102.533      28.1274
     2.05264     -102.859      28.3375
     2.07165     -103.184      28.5504
     2.09084     -103.507      28.7662
      2.1102      -103.83      28.9849
     2.12975     -104.151      29.2065
     2.14947     -104.472      29.4309
     2.16938     -104.792      29.6583
     2.18948      -105.11      29.8887
     2.20976     -105.428      30.1219
     2.23022     -105.745      30.3582
     2.25088     -106.061      30.5974
     2.27173     -106.375      30.8396
     2.29277     -106.689      31.0849
     2.31401     -107.002      31.3332
     2.33544     -107.314      31.5845
     2.35707     -107.624       31.839
      2.3789     -107.934      32.0965
     2.40093     -108.243      32.3572
     2.42317     -108.551       32.621
     2.44562     -108.857       32.888
     2.46827     -109.163      33.1581
     2.49113     -109.467      33.4315
      2.5142     -109.771      33.7081
     2.53749     -110.073       33.988
     2.56099     -110.375      34.2712
     2.58471     -110.675      34.5577
     2.60865     -110.974      34.8475
     2.63282     -111.272      35.1407
      2.6572     -111.568      35.4373
     2.68181     -111.864      35.7374
     2.70665     -112.158      36.0408
     2.73172     -112.451      36.3478
     2.75702     -112.743      36.6582
     2.78256     -113.034      36.9722
     2.80833     -113.323      37.2897
     2.83434     -113.611      37.6108
      2.8606     -113.897      37.9356
     2.88709     -114.183      38.2639
     2.91383     -114.466      38.5959
     2.94082     -114.749      38.9317
     2.96806      -115.03      39.2711
     2.99555     -115.309      39.6142
     3.02329     -115.587      39.9611
      3.0513     -115.863      40.3118
     3.07956     -116.138      40.6663
     3.10808     -116.411      41.0246
     3.13687     -116.682      41.3867
     3.16592     -116.951      41.7527
     3.19525     -117.219      42.1225
     3.22484     -117.484      42.4961
     3.25471     -117.748      42.8737
     3.28486      -118.01      43.2551
     3.31528      -118.27      43.6404
     3.34599     -118.527      44.0295
     3.37698     -118.783      44.4225
     3.40826     -119.036      44.8194
     3.43983     -119.287        45.22
     3.47169     -119.535      45.6244
     3.50384     -119.781      46.0325
      3.5363     -120.024      46.4444
     3.56905     -120.265      46.8598
     3.60211     -120.503      47.2788
     3.63547     -120.738      47.7013
     3.66914      -120.97      48.1272
     3.70313     -121.199      48.5564
     3.73743     -121.424      48.9887
     3.77204     -121.646       49.424
     3.80698     -121.865      49.8622
     3.84224      -122.08       50.303
     3.87783     -122.292      50.7463
     3.91375     -122.499      51.1918
        3.95     -122.702      51.6392
     3.98658     -122.901      52.0882
     4.02351     -123.095      52.5385
     4.06077     -123.285      52.9897
     4.09838     -123.469      53.4413
     4.13634     -123.649      53.8929
     4.17466     -123.823      54.3438
     4.21332     -123.991      54.7935
     4.25235     -124.153      55.2413
     4.29173     -124.309      55.6863
     4.33148     -124.458      56.1276
      4.3716       -124.6      56.5643
     4.41209     -124.735      56.9952
     4.45296     -124.862       57.419
      4.4942     -124.981      57.8344
     4.53583     -125.091      58.2394
     4.57784     -125.192      58.6319
     4.62024     -125.283      59.0106
     4.66303     -125.363      59.3728
     4.70622     -125.433      59.7148
     4.74981     -125.491      60.0345
     4.79381     -125.536      60.3273
     4.83821     -125.567      60.5891
     4.88302     -125.584      60.8149
     4.92825     -125.586      60.9994
      4.9739     -125.571       61.134
     5.01997     -125.538      61.2125
     5.06646     -125.486      61.2234
     5.11339     -125.414      61.1558
     5.16075     -125.319      60.9959
     5.20855     -125.199      60.7255
     5.25679     -125.054       60.325
     5.30548     -124.881      59.7681
     5.35462     -124.677      59.0227
     5.40422     -124.442      58.0492
     5.45427     -124.172      56.7984
     5.50479     -123.867       55.207
     5.55578     -123.527      53.1963
     5.60723     -123.154      50.6676
     5.65917     -122.755      47.5001
     5.71159     -122.341      43.5514
     5.76449     -121.935      38.6672
     5.81788     -121.572      32.7091
     5.87177     -121.306      25.6107
     5.92615     -121.202      17.4611
     5.98104     -121.323      8.57764
     6.03644     -121.706    -0.508501
     6.09235     -122.343      -9.1974
     6.14878     -123.188      -17.015
     6.20573     -124.172     -23.7198
     6.26321     -125.235     -29.2811
     6.32122     -126.328     -33.7958
     6.37977     -127.421     -37.4118
     6.43886     -128.494     -40.2815
      6.4985     -129.537      -42.541
     6.55869     -130.547     -44.3041
     6.61943      -131.52     -45.6627
     6.68074     -132.458     -46.6903
     6.74262     -133.363     -47.4452
     6.80507     -134.235     -47.9737
      6.8681     -135.076     -48.3128
     6.93172      -135.89     -48.4921
     6.99592     -136.678     -48.5358
     7.06072     -137.441     -48.4634
     7.12612     -138.181     -48.2909
     7.19212       -138.9     -48.0316
     7.25873       -139.6     -47.6966
     7.32597      -140.28     -47.2952
     7.39382     -140.944      -46.835
      7.4623     -141.591     -46.3229
     7.53142     -142.222     -45.7643
     7.60118     -142.839     -45.1643
     7.67158     -143.442     -44.5269
     7.74264     -144.031      -43.856
     7.81435     -144.608     -43.1546
     7.88673     -145.173     -42.4257
     7.95978     -145.726     -41.6717
      8.0335     -146.268     -40.8948
     8.10791       -146.8     -40.0971
     8.18301      -147.32     -39.2804
      8.2588     -147.831     -38.4463
     8.33529     -148.332     -37.5966
      8.4125     -148.823     -36.7324
     8.49042     -149.304     -35.8554
     8.56906     -149.777     -34.9666
     8.64842      -150.24     -34.0675
     8.72853     -150.694     -33.1591
     8.80937      -151.14     -32.2428
     8.89097     -151.576     -31.3196
     8.97332     -152.004     -30.3908
     9.05643     -152.423     -29.4575
     9.14031     -152.834     -28.5209
     9.22497     -153.236     -27.5821
     9.31041     -153.629     -26.6424
     9.39665     -154.014     -25.7027
     9.48368      -154.39     -24.7643
     9.57152     -154.757     -23.8281
     9.66017     -155.116     -22.8948
     9.74965     -155.467      -21.965
     9.83995     -155.809     -21.0391
     9.93109     -156.143     -20.1167
     10.0231     -156.468     -19.1968
     10.1159     -156.785     -18.2775
     10.2096     -157.093     -17.3553
     10.3042     -157.393     -16.4247
     10.3996     -157.685     -15.4776
     10.4959     -157.968     -14.5017
     10.5931     -158.242     -13.4795
     10.6913     -158.505     -12.3858
     10.7903     -158.756     -11.1848
     10.8902      -158.99     -9.82531
     10.9911     -159.201     -8.23489
     11.0929     -159.376     -6.31004
     11.1956     -159.495     -3.90295
     11.2993     -159.518    -0.802439
      11.404     -159.371      3.28825
     11.5096     -158.908      8.76356
     11.6162     -157.821      16.0535
     11.7238     -155.371       25.219
     11.8324     -149.046      33.1292
      11.942     -142.507     -101.439
     12.0526     -154.942     -103.607
     12.1642     -159.566     -93.7875
     12.2769      -162.19     -85.2292
     12.3906      -163.96     -78.4528
     12.5054     -165.312     -73.0888
     12.6212     -166.441     -68.7057
     12.7381     -167.444     -64.9614
     12.8561     -168.372      -61.605
     12.9752     -169.251     -58.4583
     13.0954     -170.093     -55.3948
     13.2166     -170.908     -52.3212
     13.3391     -171.697     -49.1693
     13.4626     -172.462     -45.8869
     13.5873     -173.201     -42.4326
     13.7131     -173.913     -38.7724
     13.8402     -174.594     -34.8764
     13.9684     -175.241     -30.7173
     14.0977     -175.849     -26.2687
     14.2283     -176.411     -21.5038
     14.3601     -176.921     -16.3951
     14.4931     -177.368     -10.9131
     14.6273      -177.74     -5.02701
     14.7628     -178.022      1.29586
     14.8996     -178.194      8.08873
     15.0376     -178.227      15.3834
     15.1768     -178.086      23.2066
     15.3174     -177.718      31.5718
     15.4593     -177.046      40.4635
     15.6025     -175.948      49.7979
      15.747     -174.206      59.3109
     15.8928     -171.367      68.1144
       16.04     -166.165       71.818
     16.1886     -156.784      13.8133
     16.3385     -166.716     -40.7021
     16.4899     -172.211     -32.7832
     16.6426     -175.159     -16.7577
     16.7967       -176.6      3.94452
     16.9523     -176.572      29.8753
     17.1093     -174.339      62.8489
     17.2678     -167.361      104.013
     17.4277     -140.441      108.167
     17.5892     -142.668     -68.6381
     17.7521     -159.917      158.081
     17.9165     -172.912     -159.837
     18.0824     -177.403     -122.672
     18.2499     -178.421     -94.0086
      18.419     -176.982     -73.1266
     18.5896     -172.016     -65.4948
     18.7617      -167.35     -147.934
     18.9355     -178.077     -171.001
     19.1109     -183.776     -162.857
     19.2879     -187.551     -151.788
     19.4666     -190.356      -140.46
     19.6469     -192.565     -129.458
     19.8288     -194.364     -118.954
     20.0125     -195.864     -108.999
     20.1979     -197.137     -99.5944
     20.3849     -198.233     -90.7204
     20.5737     -199.188     -82.3484
     20.7643      -200.03      -74.445
     20.9566      -200.78     -66.9742
     21.1507     -201.455     -59.9004
     21.3466     -202.066     -53.1898
     21.5443     -202.626     -46.8111
     21.7439     -203.142     -40.7345
     21.9453      -203.62      -34.933
     22.1486     -204.068     -29.3822
     22.3537     -204.488     -24.0598
     22.5607     -204.885     -18.9457
     22.7697     -205.261     -14.0216
     22.9806      -205.62      -9.2712
     23.1935     -205.964     -4.67944
     23.4083     -206.294     -0.23275
     23.6251     -206.612      4.08127
     23.8439      -206.92      8.27403
     24.0648     -207.218      12.3559
     24.2876     -207.507      16.3367
     24.5126     -207.789      20.2253
     24.7396     -208.064      24.0303
     24.9688     -208.332      27.7597
     25.2001     -208.595      31.4211
     25.4335     -208.852      35.0216
      25.669     -209.105      38.5685
     25.9068     -209.352      42.0686
     26.1467     -209.596      45.5287
     26.3889     -209.835      48.9556
     26.6333     -210.069      52.3561
       26.88       -210.3      55.7371
      27.129     -210.526      59.1058
     27.3803     -210.748      62.4696
     27.6339     -210.965      65.8363
     27.8898     -211.176      69.2144
     28.1481     -211.383      72.6121
     28.4088     -211.582      76.0395
      28.672     -211.775      79.5071
     28.9375     -211.958      83.0262
     29.2056     -212.132      86.6089
     29.4761     -212.293      90.2684
     29.7491      -212.44      94.0195
     30.0246     -212.568      97.8784
     30.3027     -212.673      101.861
     30.5834     -212.751      105.985
     30.8666     -212.792      110.266
     31.1525     -212.789      114.718
     31.4411      -212.73       119.35
     31.7323     -212.597       124.16
     32.0262     -212.373      129.128
     32.3228     -212.032      134.203
     32.6222     -211.543      139.286
     32.9244     -210.867        144.2
     33.2293     -209.959      148.637
     33.5371     -208.764      152.069
     33.8477      -207.23      153.568
     34.1612     -205.347      151.445
     34.4776     -203.315      142.842
      34.797     -201.962      125.464
     35.1193     -202.417      105.038
     35.4446     -204.201      91.3742
     35.7729     -206.175      85.1627
     36.1042      -207.91      83.3676
     36.4386      -209.36      83.8868
     36.7761     -210.569      85.6159
     37.1167     -211.588       87.984
     37.4605      -212.46      90.6843
     37.8075     -213.216      93.5485
     38.1576     -213.882      96.4809
     38.5111     -214.475      99.4271
     38.8678      -215.01      102.356
     39.2278     -215.497      105.252
     39.5911     -215.946      108.107
     39.9578     -216.362      110.916
     40.3279     -216.751       113.68
     40.7014     -217.116      116.401
     41.0784     -217.462      119.079
     41.4589     -217.791       121.72
     41.8429     -218.105      124.324
     42.2304     -218.405      126.897
     42.6216     -218.694       129.44
     43.0164     -218.972      131.957
     43.4148     -219.241      134.449
     43.8169       -219.5       136.92
     44.2227     -219.752      139.371
     44.6323     -219.995      141.804
     45.0457     -220.232      144.221
      45.463     -220.462      146.622
      45.884     -220.685      149.008
      46.309     -220.902       151.38
     46.7379     -221.113      153.739
     47.1708     -221.318      156.084
     47.6078     -221.519      158.415
     48.0487     -221.714      160.734
     48.4937     -221.904       163.04
     48.9429     -222.089      165.334
     49.3962     -222.271      167.616
     49.8537     -222.448      169.887
     50.3155     -222.622      172.148
     50.7815     -222.792        174.4
     51.2519     -222.958      176.643
     51.7266     -223.121      178.881
     52.2057     -223.281     -178.887
     52.6892     -223.438     -176.658
     53.1772     -223.591     -174.432
     53.6698     -223.742     -172.207
     54.1669     -223.889     -169.982
     54.6686     -224.032     -167.757
     55.1749     -224.172     -165.531
      55.686     -224.308     -163.304
     56.2017      -224.44     -161.075
     56.7223     -224.568     -158.845
     57.2477     -224.692     -156.614
     57.7779     -224.811     -154.382
      58.313     -224.926      -152.15
     58.8532     -225.037     -149.919
     59.3983     -225.143     -147.689
     59.9484     -225.244     -145.461
     60.5037      -225.34     -143.237
     61.0641     -225.432     -141.017
     61.6297     -225.518     -138.802
     62.2005     -225.599     -136.594
     62.7766     -225.676     -134.394
     63.3581     -225.748     -132.202
     63.9449     -225.814      -130.02
     64.5372     -225.876      -127.85
     65.1349     -225.933     -125.691
     65.7382     -225.985     -123.546
     66.3471     -226.033     -121.415
     66.9616     -226.076     -119.299
     67.5818     -226.114     -117.199
     68.2078     -226.148     -115.116
     68.8395     -226.178     -113.051
     69.4771     -226.204     -111.004
     70.1206     -226.225     -108.977
     70.7701     -226.243      -106.97
     71.4256     -226.257     -104.983
     72.0872     -226.267     -103.016
     72.7548     -226.273     -101.072
     73.4287     -226.277     -99.1492
     74.1088     -226.277     -97.2481
     74.7952     -226.274       -95.37
      75.488     -226.268     -93.5142
     76.1872     -226.259     -91.6813
     76.8928     -226.247     -89.8719
      77.605     -226.233     -88.0848
     78.3238     -226.217     -86.3207
     79.0493     -226.198       -84.58
     79.7814     -226.177     -82.8617
     80.5204     -226.154     -81.1669
     81.2662      -226.13     -79.4945
     82.0189     -226.103     -77.8449
     82.7786     -226.075     -76.2171
     83.5453     -226.045     -74.6123
     84.3191     -226.013     -73.0292
     85.1001     -225.981     -71.4673
     85.8883     -225.947     -69.9278
     86.6838     -225.911     -68.4089
     87.4867     -225.875     -66.9112
      88.297     -225.837     -65.4335
     89.1148     -225.799     -63.9765
     89.9402      -225.76     -62.5395
     90.7733     -225.719     -61.1226
      91.614     -225.678      -59.724
     92.4626     -225.637     -58.3449
      93.319     -225.595     -56.9847
     94.1833     -225.552     -55.6426
     95.0557     -225.508     -54.3184
     95.9361     -225.465     -53.0119
     96.8247      -225.42     -51.7226
     97.7215     -225.376     -50.4503
     98.6266     -225.331     -49.1946
     99.5401     -225.286     -47.9552
     100.462      -225.24     -46.7318
     101.393     -225.194      -45.524
     102.332     -225.148     -44.3315
     103.279     -225.102      -43.154
     104.236     -225.056     -41.9912
     105.202      -225.01     -40.8427
     106.176     -224.964     -39.7083
     107.159     -224.917     -38.5877
     108.152     -224.871     -37.4806
     109.154     -224.824     -36.3867
     110.165     -224.778     -35.3057
     111.185     -224.732     -34.2373
     112.215     -224.685     -33.1812
     113.254     -224.639     -32.1372
     114.303     -224.593      -31.105
     115.362     -224.547     -30.0844
      116.43     -224.501     -29.0751
     117.509     -224.455     -28.0768
     118.597      -224.41     -27.0893
     119.696     -224.364     -26.1124
     120.804     -224.319     -25.1458
     121.923     -224.274     -24.1892
     123.052     -224.229     -23.2425
     124.192     -224.185     -22.3054
     125.342      -224.14     -21.3777
     126.503     -224.096     -20.4592
     127.675     -224.052     -19.5497
     128.858     -224.008     -18.6488
     130.051     -223.965     -17.7566
     131.256     -223.922     -16.8726
     132.471     -223.879     -15.9968
     133.698     -223.836     -15.1289
     134.937     -223.794     -14.2687
     136.187     -223.752     -13.4161
     137.448      -223.71     -12.5708
     138.721     -223.669     -11.7326
     140.006     -223.628     -10.9014
     141.303     -223.587     -10.0769
     142.611     -223.547     -9.25906
     143.932     -223.506     -8.44758
     145.265     -223.467     -7.64234
     146.611     -223.427     -6.84312
     147.969     -223.388      -6.0498
     149.339     -223.349     -5.26212
     150.723     -223.311     -4.47996
     152.119     -223.273     -3.70315
     153.527     -223.235     -2.93149
     154.949     -223.197     -2.16482
     156.385      -223.16     -1.40298
     157.833     -223.124    -0.645786
     159.295     -223.087     0.106925
      160.77     -223.051     0.855323
      162.26     -223.016      1.59957
     163.762     -222.981      2.33985
     165.279     -222.946      3.07631
      166.81     -222.911      3.80912
     168.355     -222.877      4.53845
     169.914     -222.843      5.26447
     171.488      -222.81      5.98735
     173.077     -222.777      6.70722
      174.68     -222.744      7.42427
     176.298     -222.712      8.13869
      177.93      -222.68      8.85059
     179.578     -222.649      9.56014
     181.242     -222.618      10.2676
      182.92     -222.587       10.973
     184.615     -222.557      11.6766
     186.325     -222.527      12.3786
      188.05     -222.497       13.079
     189.792     -222.468      13.7781
      191.55     -222.439      14.4761
     193.324      -222.41       15.173
     195.115     -222.382      15.8691
     196.922     -222.355      16.5646
     198.746     -222.327      17.2596
     200.587       -222.3      17.9542
     202.445     -222.273      18.6487
      204.32     -222.247      19.3432
     206.212     -222.221      20.0379
     208.122     -222.195       20.733
      210.05      -222.17      21.4286
     211.995     -222.145      22.1249
     213.959      -222.12      22.8222
     215.941     -222.096      23.5204
     217.941     -222.072        24.22
     219.959     -222.048      24.9209
     221.997     -222.025      25.6234
     224.053     -222.001      26.3277
     226.128     -221.979      27.0339
     228.222     -221.956      27.7423
     230.336     -221.933       28.453
      232.47     -221.911      29.1661
     234.623     -221.889      29.8819
     236.796     -221.868      30.6006
     238.989     -221.846      31.3223
     241.203     -221.825      32.0472
     243.437     -221.804      32.7755
     245.692     -221.783      33.5074
     247.967     -221.762       34.243
     250.264     -221.741      34.9826
     252.582     -221.721      35.7263
     254.921       -221.7      36.4742
     257.283      -221.68      37.2267
     259.666      -221.66      37.9838
     262.071     -221.639      38.7457
     264.498     -221.619      39.5127
     266.948     -221.599      40.2848
      269.42     -221.578      41.0623
     271.916     -221.558      41.8452
     274.434     -221.537      42.6339
     276.976     -221.517      43.4285
     279.542     -221.496       44.229
     282.131     -221.475      45.0357
     284.744     -221.454      45.8488
     287.381     -221.432      46.6683
     290.043     -221.411      47.4945
     292.729     -221.389      48.3274
     295.441     -221.367      49.1673
     298.177     -221.344      50.0141
     300.939     -221.321      50.8682
     303.726     -221.297      51.7295
      306.54     -221.273      52.5981
     309.379     -221.249      53.4743
     312.244     -221.223       54.358
     315.136     -221.198      55.2494
     318.055     -221.171      56.1485
     321.001     -221.144      57.0554
     323.974     -221.116      57.9702
     326.975     -221.087      58.8926
     330.003     -221.058      59.8237
      333.06     -221.027      60.7622
     336.145     -220.996      61.7081
     339.258     -220.963      62.6627
     342.401      -220.93      63.6247
     345.572     -220.895      64.5953
     348.773      -220.86      65.5727
     352.003     -220.823      66.5582
     355.263     -220.784      67.5517
     358.554     -220.745      68.5527
     361.875     -220.704      69.5605
     365.227     -220.661      70.5764
      368.61     -220.617      71.5985
     372.024     -220.572      72.6281
     375.469     -220.525      73.6646
     378.947     -220.476      74.7074
     382.457     -220.426      75.7565
     385.999     -220.374      76.8119
     389.575      -220.32      77.8724
     393.183     -220.265      78.9393
     396.825     -220.207      80.0107
       400.5     -220.148      81.0873
      404.21     -220.086      82.1685
     407.953     -220.023      83.2536
     411.732     -219.958      84.3428
     415.546      -219.89      85.4355
     419.394     -219.821      86.5309
     423.279     -219.749      87.6293
     427.199     -219.676        88.73
     431.156       -219.6      89.8329
      435.15     -219.522      90.9364
      439.18     -219.442      92.0417
     443.248     -219.359      93.1475
     447.353     -219.275      94.2533
     451.497     -219.188      95.3585
     455.679     -219.099      96.4632
     459.899     -219.008      97.5667
     464.159     -218.915      98.6685
     468.458      -218.82      99.7686
     472.797     -218.722      100.866
     477.176     -218.623       101.96
     481.596     -218.521      103.051
     486.056     -218.417      104.139
     490.558     -218.311      105.222
     495.102     -218.203      106.301
     499.688     -218.094      107.374
     504.316     -217.982      108.443
     508.987     -217.868      109.506
     513.701     -217.752      110.563
     518.459     -217.635      111.614
     523.261     -217.516      112.658
     528.108     -217.395      113.696
     532.999     -217.272      114.726
     537.936     -217.148      115.749
     542.919     -217.022      116.765
     547.947     -216.894      117.773
     553.022     -216.765      118.772
     558.145     -216.635      119.764
     563.314     -216.503      120.747
     568.532      -216.37      121.722
     573.798     -216.235      122.688
     579.112       -216.1      123.646
     584.476     -215.963      124.595
      589.89     -215.825      125.535
     595.353     -215.686      126.466
     600.868     -215.546      127.388
     606.433     -215.405        128.3
      612.05     -215.263      129.204
     617.719      -215.12      130.099
      623.44     -214.977      130.985
     629.215     -214.833      131.862
     635.043     -214.688      132.729
     640.924     -214.542      133.588
     646.861     -214.396      134.438
     652.852     -214.249      135.279
     658.899     -214.102      136.111
     665.002     -213.954      136.934
     671.161     -213.806      137.749
     677.378     -213.657      138.555
     683.652     -213.508      139.353
     689.984     -213.359      140.142
     696.374     -213.209      140.923
     702.824      -213.06      141.696
     709.334      -212.91      142.461
     715.904      -212.76      143.218
     722.535      -212.61      143.967
     729.227     -212.459      144.708
     735.981     -212.309      145.442
     742.798     -212.159      146.169
     749.678     -212.008      146.888
     756.622     -211.858        147.6
      763.63     -211.708      148.305
     770.703     -211.558      149.003
     777.841     -211.408      149.695
     785.046     -211.258       150.38
     792.317     -211.109      151.058
     799.655     -210.959       151.73
     807.062      -210.81      152.397
     814.537     -210.662      153.057
     822.082     -210.513      153.711
     829.696     -210.365       154.36
     837.381     -210.217      155.003
     845.137     -210.069      155.641
     852.964     -209.922      156.273
     860.865     -209.776      156.901
     868.838     -209.629      157.523
     876.886     -209.483      158.141
     885.008     -209.338      158.754
     893.205     -209.193      159.363
     901.478     -209.049      159.967
     909.827     -208.905      160.567
     918.254     -208.762      161.163
     926.759     -208.619      161.755
     935.343     -208.477      162.344
     944.006     -208.335      162.929
      952.75     -208.194       163.51
     961.575     -208.054      164.088
     970.481     -207.914      164.662
      979.47     -207.775      165.234
     988.542     -207.637      165.803
     997.698       -207.5      166.369
     1006.94     -207.363      166.932
     1016.27     -207.227      167.493
     1025.68     -207.092      168.052
     1035.18     -206.957      168.608
     1044.77     -206.824      169.162
     1054.44     -206.691      169.715
     1064.21     -206.559      170.265
     1074.07     -206.428      170.814
     1084.01     -206.297      171.362
     1094.05     -206.168      171.908
     1104.19      -206.04      172.453
     1114.42     -205.912      172.997
     1124.74     -205.786       173.54
     1135.15      -205.66      174.082
     1145.67     -205.536      174.624
     1156.28     -205.412      175.165
     1166.99      -205.29      175.706
      1177.8     -205.168      176.247
     1188.71     -205.048      176.788
     1199.72     -204.929      177.329
     1210.83     -204.811       177.87
     1222.04     -204.694      178.412
     1233.36     -204.579      178.954
     1244.79     -204.464      179.498
     1256.32     -204.351     -179.958
     1267.95     -204.239     -179.412
      1279.7     -204.129     -178.865
     1291.55     -204.019     -178.317
     1303.51     -203.911     -177.766
     1315.59     -203.805     -177.214
     1327.77       -203.7      -176.66
     1340.07     -203.596     -176.103
     1352.48     -203.494     -175.544
     1365.01     -203.393     -174.982
     1377.65     -203.294     -174.417
     1390.41     -203.196     -173.848
     1403.29       -203.1     -173.277
     1416.29     -203.006     -172.701
      1429.4     -202.913     -172.121
     1442.64     -202.822     -171.538
     1456.01     -202.733     -170.949
     1469.49     -202.646     -170.356
      1483.1      -202.56     -169.758
     1496.84     -202.476     -169.154
      1510.7     -202.394     -168.544
      1524.7     -202.314     -167.929
     1538.82     -202.236     -167.306
     1553.07     -202.161     -166.677
     1567.46     -202.087     -166.041
     1581.97     -202.015     -165.397
     1596.63     -201.946     -164.745
     1611.41     -201.878     -164.085
     1626.34     -201.813     -163.415
      1641.4     -201.751     -162.736
     1656.61      -201.69     -162.047
     1671.95     -201.632     -161.347
     1687.44     -201.577     -160.637
     1703.06     -201.524     -159.914
     1718.84     -201.474     -159.179
     1734.76     -201.426     -158.431
     1750.83     -201.381     -157.669
     1767.04     -201.338     -156.893
     1783.41     -201.299     -156.101
     1799.93     -201.262     -155.293
      1816.6     -201.228     -154.468
     1833.43     -201.197     -153.625
     1850.41     -201.169     -152.763
     1867.55     -201.144      -151.88
     1884.84     -201.122     -150.977
      1902.3     -201.103     -150.051
     1919.92     -201.087     -149.101
      1937.7     -201.074     -148.127
     1955.65     -201.064     -147.126
     1973.76     -201.058     -146.097
     1992.05     -201.054     -145.038
      2010.5     -201.054     -143.949
     2029.12     -201.057     -142.826
     2047.91     -201.062     -141.669
     2066.88     -201.071     -140.475
     2086.02     -201.083     -139.243
     2105.35     -201.097      -137.97
     2124.85     -201.114     -136.654
     2144.53     -201.133     -135.293
     2164.39     -201.155     -133.885
     2184.44     -201.179     -132.427
     2204.67     -201.205     -130.917
     2225.09     -201.232     -129.352
      2245.7      -201.26      -127.73
      2266.5     -201.289      -126.05
     2287.49     -201.318     -124.308
     2308.68     -201.347     -122.502
     2330.06     -201.375     -120.631
     2351.64     -201.402     -118.693
     2373.42     -201.426     -116.687
     2395.41     -201.447     -114.612
     2417.59     -201.465     -112.468
     2439.99     -201.478     -110.256
     2462.59     -201.485     -107.975
      2485.4     -201.485     -105.629
     2508.42     -201.478     -103.219
     2531.65     -201.463      -100.75
      2555.1     -201.438     -98.2262
     2578.76     -201.403      -95.653
     2602.65     -201.357     -93.0369
     2626.75       -201.3     -90.3858
     2651.08      -201.23     -87.7078
     2675.64     -201.148     -85.0115
     2700.42     -201.054      -82.306
     2725.43     -200.947     -79.6005
     2750.68     -200.828     -76.9047
     2776.15     -200.698     -74.2278
     2801.87     -200.556     -71.5785
     2827.82     -200.405     -68.9646
     2854.01     -200.244     -66.3938
     2880.44     -200.075     -63.8722
     2907.12       -199.9      -61.405
     2934.05     -199.719     -58.9963
     2961.23     -199.534     -56.6496
     2988.65     -199.346     -54.3666
     3016.33     -199.157     -52.1485
     3044.27     -198.968     -49.9953
     3072.47      -198.78     -47.9061
     3100.93     -198.596     -45.8793
     3129.65     -198.415     -43.9124
     3158.64      -198.24     -42.0022
     3187.89     -198.071     -40.1449
     3217.42      -197.91     -38.3359
     3247.22     -197.758     -36.5703
     3277.29     -197.616     -34.8423
     3307.65     -197.485     -33.1459
     3338.29     -197.366     -31.4743
     3369.21      -197.26       -29.82
     3400.41     -197.167     -28.1749
     3431.91     -197.089     -26.5305
     3463.69     -197.026      -24.877
     3495.78      -196.98     -23.2043
     3528.15     -196.949      -21.501
     3560.83     -196.936     -19.7549
     3593.81     -196.941     -17.9526
      3627.1     -196.962     -16.0798
      3660.7     -197.002     -14.1207
      3694.6     -197.058     -12.0586
     3728.82     -197.131     -9.87573
     3763.36      -197.22     -7.55342
     3798.22     -197.322     -5.07235
      3833.4     -197.436     -2.41332
      3868.9      -197.56     0.442208
     3904.74     -197.688      3.51094
      3940.9     -197.818      6.80639
      3977.4     -197.944      10.3374
     4014.24      -198.06      14.1059
     4051.42     -198.161      18.1058
     4088.95     -198.241      22.3207
     4126.82     -198.294      26.7243
     4165.04     -198.315      31.2801
     4203.62     -198.302      35.9437
     4242.56     -198.253      40.6663
     4281.85     -198.168      45.3984
     4321.51     -198.052      50.0941
     4361.54     -197.907       54.715
     4401.94     -197.739      59.2324
     4442.71     -197.555      63.6287
     4483.86      -197.36      67.8955
     4525.39      -197.16      72.0357
      4567.3     -196.961      76.0584
      4609.6     -196.767      79.9792
      4652.3     -196.582      83.8174
     4695.39     -196.408      87.5955
     4738.88     -196.248      91.3375
     4782.77     -196.103      95.0669
     4827.07     -195.974      98.8094
     4871.78     -195.862       102.59
      4916.9     -195.766      106.433
     4962.44     -195.684      110.373
     5008.41     -195.611      114.462
      5054.8     -195.519      118.467
     5101.62     -195.497      122.594
     5148.87      -195.47      127.008
     5196.56     -195.444      131.579
     5244.69      -195.42      136.316
     5293.27     -195.397      141.227
     5342.29     -195.371      146.317
     5391.77      -195.34      151.586
     5441.71     -195.301      157.034
     5492.12     -195.253      162.654
     5542.99     -195.192       168.44
     5594.33     -195.118      174.383
     5646.14     -195.029     -179.527
     5698.44     -194.924     -173.297
     5751.22     -194.806     -166.928
     5804.49     -194.675     -160.411
     5858.25     -194.536     -153.703
     5912.51     -194.396     -146.669
     5967.27     -194.268     -138.737
     6022.54      -193.76     -125.118
     6078.32     -192.768     -131.766
     6134.62     -193.122      -123.72
     6191.44     -193.025     -116.247
     6248.79     -192.849     -109.005
     6306.67     -192.647       -101.8
     6365.08     -192.431     -94.5547
     6424.03      -192.21     -87.2242
     6483.53     -191.988     -79.7752
     6543.59     -191.768     -72.1789
     6604.19     -191.553       -64.33
     6665.36     -191.334     -56.3211
      6727.1     -191.131     -48.0759
     6789.41     -190.941     -39.4757
     6852.29     -190.764     -30.4583
     6915.76     -190.604     -20.9149
     6979.81      -190.46     -10.6929
     7044.46     -190.324     0.417343
     7109.71      -190.18      12.6971
     7175.56     -189.984      26.4677
     7242.02     -189.665      42.1134
      7309.1     -189.084      59.7509
      7376.8     -188.077      78.9891
     7445.12      -186.52      98.6994
     7514.08     -184.414      117.434
     7583.68     -181.875      134.178
     7653.92     -179.037      148.624
     7724.81     -175.985      160.895
     7796.36      -172.74      171.195
     7868.57     -169.266      179.577
     7941.45      -165.47     -174.275
     8015.01     -161.188      -171.51
     8089.24     -156.212     -175.652
     8164.17         -151      163.269
     8239.79     -149.465      124.327
      8316.1     -151.429      103.518
     8393.13     -153.078      98.4783
     8470.87     -154.013      99.4082
     8549.33     -154.439      102.823
     8628.51     -154.514      107.465
     8708.43     -154.339      112.834
     8789.09     -153.975      118.767
      8870.5     -153.469      125.336
     8952.66     -152.857      132.983
     9035.58     -152.192      143.199
     9119.27     -151.663      163.143
     9203.73     -151.289     -5.60003
     9288.98     -150.239      76.9373
     9375.01     -148.545      117.084
     9461.85     -147.342      128.506
     9549.49     -146.216      134.505
     9637.93     -145.123      138.084
      9727.2      -144.08      140.083
      9817.3     -143.121      140.869
     9908.23      -142.29      140.731
       10000     -141.624      140.006